# wavelength (Angstrom) 
6088.725
6088.835
6089.215
6091.693
6093.252
6094.111
6096.080
6097.689
6098.998
6100.067
6100.936
6101.646
6102.226
6102.705
6103.095
6103.415
6103.675
6103.894
6104.074
6104.224
6104.344
6104.444
6104.534
6104.604
6104.664
6104.724
6104.764
6104.804
6104.844
6104.874
6104.904
6104.924
6104.954
6104.974
6104.994
6105.014
6105.034
6105.054
6105.064
6105.084
6105.104
6105.114
6105.134
6105.143
6105.163
6105.173
6105.193
6105.213
6105.223
6105.243
6105.253
6105.263
6105.283
6105.293
6105.313
6105.323
6105.343
6105.353
6105.373
6105.383
6105.403
6105.413
6105.433
6105.443
6105.463
6105.483
6105.493
6105.513
6105.533
6105.543
6105.563
6105.583
6105.603
6105.623
6105.643
6105.673
6105.693
6105.723
6105.753
6105.793
6105.833
6105.873
6105.933
6105.993
6106.063
6106.153
6106.253
6106.373
6106.523
6106.682
6106.702
6106.922
6107.182
6107.502
6107.892
6108.371
6108.951
6109.670
6110.540
6111.609
6112.928
6114.547
6115.926
6116.526
6117.655
6118.964
6119.254
6120.083
6121.962
6691.448
6691.617
6694.705
6695.915
6696.794
6697.364
6699.492
6699.532
6700.082
6700.301
6700.451
6700.591
6700.721
6700.871
6701.091
6701.291
6701.681
6702.730
6703.909
6704.389
6704.868
6705.648
6706.287
6706.807
6707.237
6707.586
6707.876
6708.116
6708.316
6708.476
6708.606
6708.726
6708.816
6708.896
6708.965
6709.025
6709.075
6709.115
6709.155
6709.195
6709.225
6709.255
6709.275
6709.305
6709.325
6709.345
6709.365
6709.385
6709.405
6709.425
6709.445
6709.455
6709.475
6709.495
6709.515
6709.525
6709.545
6709.565
6709.575
6709.595
6709.615
6709.625
6709.645
6709.655
6709.675
6709.695
6709.705
6709.725
6709.745
6709.755
6709.775
6709.795
6709.805
6709.825
6709.845
6709.855
6709.875
6709.895
6709.915
6709.935
6709.955
6709.975
6709.995
6710.015
6710.045
6710.065
6710.095
6710.125
6710.165
6710.195
6710.245
6710.295
6710.355
6710.424
6710.504
6710.594
6710.714
6710.844
6711.004
6711.204
6711.444
6711.734
6712.083
6712.513
6713.033
6713.672
6714.462
6715.421
6716.600
6718.049
6719.818
6721.996
6724.675
6727.972
8106.538
8110.495
8113.713
8113.933
8116.331
8118.470
8120.218
8121.638
8122.797
8123.746
8124.516
8125.155
8125.675
8126.094
8126.444
8126.734
8126.974
8127.174
8127.334
8127.473
8127.583
8127.683
8127.763
8127.833
8127.893
8127.953
8128.003
8128.043
8128.083
8128.113
8128.143
8128.173
8128.203
8128.223
8128.253
8128.273
8128.303
8128.323
8128.343
8128.363
8128.383
8128.403
8128.423
8128.443
8128.463
8128.483
8128.503
8128.523
8128.543
8128.563
8128.583
8128.603
8128.623
8128.643
8128.663
8128.683
8128.703
8128.723
8128.743
8128.763
8128.783
8128.803
8128.823
8128.843
8128.872
8128.892
8128.912
8128.932
8128.962
8128.982
8129.012
8129.042
8129.062
8129.102
8129.132
8129.172
8129.212
8129.262
8129.312
8129.372
8129.442
8129.532
8129.622
8129.742
8129.882
8130.042
8130.242
8130.481
8130.761
8131.121
8131.541
8132.060
8132.700
8132.760
8133.469
8133.849
8134.419
8135.588
8137.017
8138.766
8140.914
8143.552
8146.800
8150.787
